"Time (s)","Acceleration x (m/s^2)","Acceleration y (m/s^2)","Acceleration z (m/s^2)"
1.054434100E-2,-2.778067112E0,4.264608383E0,7.573283672E0
1.282500200E-2,-2.735594511E0,4.253840446E0,7.678567886E0
1.510566300E-2,-2.693720102E0,4.257429600E0,7.812565804E0
1.738632400E-2,-2.718246460E0,4.267001152E0,7.936394691E0
1.966787700E-2,-2.609373093E0,4.288536549E0,8.113463402E0
2.194942900E-2,-2.476571321E0,4.295116425E0,8.300702095E0
2.423098100E-2,-2.333002090E0,4.344767570E0,8.440083504E0
2.651253300E-2,-2.214557409E0,4.342374802E0,8.598608017E0
2.879408500E-2,-2.091925144E0,4.310669899E0,8.752346992E0
3.107563700E-2,-1.949552298E0,4.288536549E0,8.934800148E0
3.335768700E-2,-1.827518344E0,4.238286972E0,9.098110199E0
3.563930100E-2,-1.695314884E0,4.168296814E0,9.280562401E0
3.792091500E-2,-1.572682738E0,4.122833252E0,9.401400566E0
4.020252900E-2,-1.488335729E0,4.034897327E0,9.507282257E0
4.248408100E-2,-1.433300734E0,3.947559118E0,9.622138023E0
4.476855900E-2,-1.357926846E0,3.912265062E0,9.723235130E0
4.705260100E-2,-1.287936807E0,3.839283943E0,9.818947792E0
4.933701700E-2,-1.255633712E0,3.757329702E0,9.872187614E0
5.162180600E-2,-1.228116274E0,3.689732552E0,9.848857880E0
5.390335800E-2,-1.257428288E0,3.595216036E0,9.786644936E0
5.618484800E-2,-1.307079315E0,3.518645763E0,9.896116257E0
5.846640000E-2,-1.375872970E0,3.461816072E0,9.937990189E0
6.074770300E-2,-1.365703583E0,3.504886866E0,1.000498962E1
6.302925500E-2,-1.452443361E0,3.472583771E0,1.000439167E1
6.531080700E-2,-1.563111424E0,3.445664644E0,1.000798035E1
6.759229700E-2,-1.692921996E0,3.418745279E0,9.992427826E0
6.987428400E-2,-1.811964989E0,3.430709362E0,9.934401512E0
7.215452800E-2,-1.931606054E0,3.403790236E0,9.890133858E0
7.443601800E-2,-2.075175524E0,3.377469063E0,9.817750931E0
7.671757000E-2,-2.199003935E0,3.384647608E0,9.754341125E0
7.899856200E-2,-2.285145521E0,3.357728481E0,9.686744690E0
8.127830800E-2,-2.371885538E0,3.306282759E0,9.647860527E0
8.355680900E-2,-2.405983210E0,3.263810158E0,9.609575272E0
8.583836100E-2,-2.434697151E0,3.221935749E0,9.571290970E0
8.812047300E-2,-2.419741869E0,3.245863914E0,9.495318413E0
9.038528800E-2,-2.389831543E0,3.283550978E0,9.428318977E0
9.261972400E-2,-2.355135679E0,3.317050457E0,9.347561836E0
9.485373200E-2,-2.320439816E0,3.336193085E0,9.266803741E0
9.708981700E-2,-2.319841623E0,3.364906788E0,9.218947411E0
9.932748700E-2,-2.318645239E0,3.403790236E0,9.114261627E0
1.015641820E-1,-2.302493572E0,3.451646566E0,9.019146919E0
1.038007540E-1,-2.315055847E0,3.514458179E0,8.918647766E0
1.060378750E-1,-2.318645239E0,3.572484255E0,8.827720642E0
1.082765230E-1,-2.307877541E0,3.616153240E0,8.751749039E0
1.105109590E-1,-2.301297188E0,3.668795347E0,8.632705688E0
1.127478360E-1,-2.266601324E0,3.711866140E0,8.542376518E0
1.149846530E-1,-2.230708838E0,3.788436413E0,8.451449394E0
1.172214690E-1,-2.137388945E0,3.902095556E0,8.352147102E0
1.194582850E-1,-2.111665964E0,3.973880291E0,8.271389961E0
1.216832610E-1,-2.072782516E0,3.997808456E0,8.181060791E0
1.239202600E-1,-2.047657967E0,4.040879250E0,8.109275818E0
1.261617770E-1,-2.012363911E0,4.097708702E0,8.038089752E0
1.284085420E-1,-2.020738840E0,4.127020836E0,7.957331657E0
1.306452980E-1,-2.000998020E0,4.170091629E0,7.928617954E0
1.328813810E-1,-1.976471543E0,4.193421841E0,7.928617954E0
1.351159390E-1,-1.962114573E0,4.217350006E0,7.923832417E0
1.373528170E-1,-1.913659930E0,4.255036831E0,7.924430370E0
1.395883510E-1,-1.831107497E0,4.305884361E0,7.929814339E0
1.418216270E-1,-1.744965911E0,4.333401680E0,7.987840176E0
1.440654020E-1,-1.658824325E0,4.365106583E0,8.007580757E0
1.462997770E-1,-1.591825247E0,4.387838364E0,8.060821533E0
1.485378760E-1,-1.554138303E0,4.358526230E0,8.108677864E0
1.507726170E-1,-1.530808330E0,4.367499352E0,8.185248375E0
1.530102870E-1,-1.493121386E0,4.351946354E0,8.247461319E0
1.552470430E-1,-1.465005636E0,4.332205296E0,8.333602905E0
1.574836760E-1,-1.508674622E0,4.328018188E0,8.347960472E0
1.597209810E-1,-1.500299811E0,4.279563427E0,8.405387878E0
1.619594450E-1,-1.448255897E0,4.255036831E0,8.443673134E0
1.641941860E-1,-1.410568953E0,4.215555191E0,8.477770805E0
1.664311860E-1,-1.368096352E0,4.205385685E0,8.525627136E0
1.686672090E-1,-1.387837172E0,4.147958279E0,8.535198212E0
1.709046360E-1,-1.417149186E0,4.115056515E0,8.553742409E0
1.731415740E-1,-1.451845169E0,4.048655987E0,8.544171333E0
1.753781460E-1,-1.481157184E0,4.025325775E0,8.577671051E0
1.776153290E-1,-1.515853167E0,3.982254982E0,8.601000786E0
1.798539150E-1,-1.540977836E0,3.925425529E0,8.643473625E0
1.820884120E-1,-1.575075507E0,3.906282902E0,8.686544418E0
1.843254730E-1,-1.603789330E0,3.887738705E0,8.705088615E0
1.865614960E-1,-1.637887120E0,3.892524242E0,8.752346992E0
1.887967870E-1,-1.657627940E0,3.897309780E0,8.833105087E0
1.910262790E-1,-1.700698733E0,3.912265062E0,8.866603851E0
1.932722500E-1,-1.743769526E0,3.945764542E0,8.927620888E0
1.955097990E-1,-1.834696770E0,3.966701746E0,8.960522652E0
1.977506440E-1,-1.906481385E0,3.981656790E0,8.988637924E0
1.999829440E-1,-1.993819475E0,3.949353695E0,9.059226990E0
2.022195160E-1,-2.051247120E0,3.969094515E0,9.087342262E0
2.044560280E-1,-2.114058733E0,3.955335855E0,9.139386177E0
2.066933320E-1,-2.172084808E0,3.951148272E0,9.176474571E0
2.089299650E-1,-2.196611166E0,3.918246984E0,9.195617676E0
2.111667820E-1,-2.216351986E0,3.899104595E0,9.229117393E0
2.134042690E-1,-2.216351986E0,3.913461447E0,9.233902931E0
2.156423680E-1,-2.186441660E0,3.975674868E0,9.186046600E0
2.178772920E-1,-2.190629244E0,3.937389612E0,9.100502968E0
2.201142300E-1,-2.162513494E0,3.899104595E0,9.110074043E0
2.223503760E-1,-2.163111687E0,3.865604877E0,9.105288506E0
2.245876190E-1,-2.144567251E0,3.821935892E0,9.110671997E0
2.268241300E-1,-2.160120726E0,3.765106440E0,9.138788223E0
2.290610080E-1,-2.112264156E0,3.735196114E0,9.125029564E0
2.312953220E-1,-2.084148407E0,3.725624800E0,9.125627518E0
2.335217620E-1,-2.031506538E0,3.681955814E0,9.083154678E0
2.357597990E-1,-1.993221283E0,3.662214994E0,9.026325226E0
2.380082730E-1,-1.944766641E0,3.657429457E0,8.974281311E0
2.402473480E-1,-1.911267042E0,3.628117323E0,8.893523216E0
2.424846530E-1,-1.906481385E0,3.580859184E0,8.807980537E0
2.447187840E-1,-1.882553220E0,3.537788391E0,8.736793518E0
2.469556000E-1,-1.868196249E0,3.509074450E0,8.688937187E0
2.491927210E-1,-1.863410592E0,3.485146284E0,8.651249886E0
2.514311860E-1,-1.862812400E0,3.461816072E0,8.579465866E0
2.536659880E-1,-1.881356835E0,3.481556892E0,8.507680893E0
2.559026210E-1,-1.881356835E0,3.452843189E0,8.450851440E0
2.581388890E-1,-1.880758643E0,3.467798233E0,8.393424034E0
2.603761320E-1,-1.889731646E0,3.458825111E0,8.321639061E0
2.626128270E-1,-1.893919110E0,3.473181963E0,8.250452042E0
2.648498260E-1,-1.912463546E0,3.469592810E0,8.164310455E0
2.670870080E-1,-1.922034740E0,3.469592810E0,8.140382767E0
2.693257780E-1,-1.926820397E0,3.455235958E0,8.116454124E0
2.715603360E-1,-2.017747641E0,3.437887907E0,8.077570915E0
2.737951390E-1,-2.012962103E0,3.457030535E0,8.111070633E0
2.760250580E-1,-1.974676847E0,3.451048374E0,8.154141426E0
2.782704800E-1,-1.922633052E0,3.450450182E0,8.193024635E0
2.805072970E-1,-1.903490424E0,3.473780155E0,8.236095428E0
2.827461270E-1,-1.904088616E0,3.468396425E0,8.297710419E0
2.849812950E-1,-1.914258122E0,3.463610888E0,8.388039589E0
2.872199430E-1,-1.905883193E0,3.443870068E0,8.474181175E0
2.894562100E-1,-1.896910191E0,3.443271875E0,8.589036942E0
2.916987640E-1,-1.878963947E0,3.461217880E0,8.746364594E0
2.939274630E-1,-1.875374794E0,3.465405464E0,8.903693199E0
2.961650730E-1,-1.881356835E0,3.459423304E0,9.099306107E0
2.983998140E-1,-1.887338877E0,3.463610888E0,9.256634712E0
3.006386440E-1,-1.908276081E0,3.472583771E0,9.432506561E0
3.028755220E-1,-1.899302959E0,3.486342669E0,9.585049629E0
3.051142300E-1,-1.904686809E0,3.523431301E0,9.728020668E0
3.073486050E-1,-1.958525300E0,3.528815269E0,9.885348320E0
3.095827360E-1,-1.983051777E0,3.537788391E0,9.970891953E0
3.118097260E-1,-2.002194405E0,3.547957659E0,9.999007225E0
3.140591770E-1,-2.021337032E0,3.576671600E0,1.003729248E1
3.162961150E-1,-2.026122570E0,3.600599766E0,1.006540871E1
3.185339690E-1,-2.025524378E0,3.614956856E0,1.005105114E1
3.207630340E-1,-2.058425665E0,3.658625841E0,1.002712345E1
3.230084560E-1,-2.086541414E0,3.678366661E0,9.988838196E0
3.252429530E-1,-2.105085611E0,3.702294827E0,9.964311600E0
3.274817230E-1,-2.146960020E0,3.784847260E0,9.926026344E0
3.297159760E-1,-2.203191519E0,3.833301783E0,9.887143135E0
3.319534030E-1,-2.240280151E0,3.887140274E0,9.767501831E0
3.341902190E-1,-2.276770830E0,3.926621914E0,9.667003632E0
3.364272800E-1,-2.294118643E0,3.994219303E0,9.533005714E0
3.386614110E-1,-2.297109842E0,4.024129391E0,9.375677109E0
3.408909030E-1,-2.300100803E0,4.072584152E0,9.227920532E0
3.431374850E-1,-2.308475733E0,4.097110748E0,9.084351540E0
3.453744840E-1,-2.282154560E0,4.159922123E0,8.955737114E0
3.476133140E-1,-2.276172638E0,4.188635826E0,8.855836868E0
3.498478730E-1,-2.227119684E0,4.246063709E0,8.770293236E0
3.520843840E-1,-2.196611166E0,4.293920040E0,8.670392990E0
3.543213840E-1,-2.161915302E0,4.322035789E0,8.594420433E0
3.565588100E-1,-2.094317913E0,4.350151539E0,8.528019905E0
3.587969700E-1,-2.073979139E0,4.388436794E0,8.452047348E0
3.610320770E-1,-2.053640127E0,4.426722050E0,8.390432358E0
3.632687710E-1,-2.073380709E0,4.369892120E0,8.380861282E0
3.655049780E-1,-2.155933142E0,4.332803726E0,8.432307243E0
3.677424040E-1,-2.219941139E0,4.308875561E0,8.603393555E0
3.699789760E-1,-2.289333105E0,4.275375843E0,8.836693764E0
3.722157930E-1,-2.377269268E0,4.294518471E0,9.069396019E0
3.744529140E-1,-2.441277266E0,4.275375843E0,9.293125153E0
3.766916230E-1,-2.386242390E0,4.239483356E0,9.536594391E0
3.789259980E-1,-2.429911375E0,3.981058598E0,9.727422714E0
3.811628750E-1,-2.366501570E0,4.213162422E0,1.001396275E1
3.833991430E-1,-2.362314224E0,4.226921082E0,1.010907745E1
3.856367520E-1,-2.408375978E0,4.060021877E0,1.018983555E1
3.878733250E-1,-2.059023857E0,3.361317635E0,1.017547798E1
3.901101410E-1,-1.820937991E0,2.130210400E0,9.879366875E0
3.923469570E-1,-1.417747378E0,1.198804140E0,9.297910690E0
3.945837730E-1,-1.438086390E0,9.900303483E-1,9.088538170E0
3.968205890E-1,-1.770688772E0,1.328016520E0,9.390034676E0
3.990456880E-1,-1.935793519E0,1.735394597E0,9.774082184E0
4.012847010E-1,-2.038684845E0,2.051247120E0,1.003489971E1
4.035220050E-1,-2.103291035E0,2.366501570E0,1.027178955E1
4.057569910E-1,-2.158325911E0,2.648256540E0,1.053320503E1
4.079968600E-1,-2.118246317E0,2.857628345E0,1.065224838E1
4.102453950E-1,-1.954936147E0,2.845664263E0,1.062054348E1
4.124830660E-1,-1.899901152E0,3.087937593E0,1.077308559E1
4.147176850E-1,-1.931606054E0,3.321835995E0,1.095374393E1
4.169518160E-1,-1.987837434E0,3.551547050E0,1.116730309E1
4.191877170E-1,-2.091925144E0,3.757329702E0,1.138086224E1
4.214253270E-1,-2.158325911E0,3.877569199E0,1.151844978E1
4.236620210E-1,-2.148754835E0,3.915256023E0,1.157049370E1
4.258987150E-1,-2.081157446E0,3.885943890E0,1.151904774E1
4.281360810E-1,-2.012962103E0,3.904488325E0,1.138146114E1
4.303747280E-1,-1.983649969E0,3.838087559E0,1.117208862E1
4.326091640E-1,-2.068595171E0,2.636890650E0,1.062473106E1
4.348459200E-1,-2.513062000E0,9.547362328E-1,9.836894035E0
4.370819430E-1,-2.659622431E0,7.160521746E-1,9.187242508E0
4.393168680E-1,-2.858824968E0,4.169493318E-1,8.361120224E0
4.415425140E-1,-3.107678413E0,2.973082066E-1,8.149355888E0
4.437785370E-1,-3.540181160E0,3.032902777E-1,8.335995674E0
4.460184660E-1,-4.164109707E0,3.547359705E-1,8.563912392E0
4.482720070E-1,-4.841876507E0,4.821537733E-1,9.072386742E0
4.505063210E-1,-5.530411243E0,5.754738450E-1,9.671191216E0
4.527432590E-1,-5.992824078E0,7.375875711E-1,1.027238750E1
4.549764740E-1,-5.892923832E0,1.288534999E0,1.073480034E1
4.572141450E-1,-5.241477966E0,2.929413080E0,1.252164078E1
4.594460170E-1,-4.471587181E0,4.347160339E0,1.354696560E1
4.616686740E-1,-4.352544308E0,3.904488325E0,1.279502106E1
4.639245940E-1,-4.419543266E0,3.800400496E0,1.381017590E1
4.661633030E-1,-4.816751957E0,3.683750391E0,1.539960861E1
4.684023780E-1,-4.836492538E0,3.381058455E0,1.672583008E1
4.706345550E-1,-4.430909157E0,3.131008387E0,1.765962982E1
4.728707610E-1,-3.805784464E0,2.209173441E0,1.751426506E1
4.751081880E-1,-3.506681681E0,1.066600680E0,1.639861107E1
4.773450650E-1,-3.518645763E0,6.532405615E-1,1.593141270E1
4.795790740E-1,-3.314059258E0,6.239284873E-1,1.540917969E1
4.818072230E-1,-2.779861689E0,7.052844763E-1,1.470329666E1
4.840566130E-1,-2.507079840E0,5.808576941E-1,1.390947819E1
4.862880580E-1,-2.403590441E0,4.576273263E-1,1.331007576E1
4.885320160E-1,-2.593221426E0,3.200400174E-1,1.277886963E1
4.907651100E-1,-2.979662418E0,2.129612118E-1,1.235115242E1
4.930036960E-1,-3.447459221E0,2.069791555E-1,1.212323570E1
4.952392300E-1,-3.775874138E0,3.080759048E-1,1.204367447E1
4.974761080E-1,-3.834498405E0,4.815555513E-1,1.191864967E1
4.997134120E-1,-3.464807272E0,7.208378315E-1,1.167876911E1
5.019519990E-1,-3.012563705E0,1.016949654E0,1.135334492E1
5.041868010E-1,-2.468196630E0,1.421336651E0,1.107159042E1
5.064233730E-1,-1.952543259E0,1.830509305E0,1.089870930E1
5.086596410E-1,-1.413560033E0,2.301297188E0,1.079342461E1
5.108968840E-1,-1.051645517E0,2.807379246E0,1.079103184E1
5.131306480E-1,-7.788637877E-1,3.151945591E0,1.089332485E1
5.153559290E-1,-5.449653864E-1,3.458825111E0,1.093759251E1
5.175960420E-1,-4.600201547E-1,3.526422262E0,1.060439205E1
5.198464690E-1,-1.884347796E-1,3.050250769E0,9.311071396E0
5.220806610E-1,-5.515456200E-1,2.561516523E0,7.701299667E0
5.243083830E-1,-1.104287624E0,2.132004976E0,5.327021599E0
5.265539280E-1,-1.624726534E0,2.057827473E0,2.523231506E0
5.287915370E-1,-1.822732687E0,2.202593327E0,-3.948157281E-2
5.310311620E-1,-8.560323119E-1,2.188236237E0,-1.150947690E0
5.332648650E-1,3.792623878E-1,2.325823545E0,-8.063812256E-1
5.355019860E-1,1.328614831E0,2.545963287E0,1.369891018E-1
5.377406950E-1,1.878365755E0,2.629113913E0,1.014556766E0
5.399750700E-1,2.304886341E0,2.742773056E0,1.800000787E0
5.422119480E-1,2.555534601E0,2.893520832E0,2.498705149E0
5.444482150E-1,2.615953445E0,3.086143017E0,3.099303484E0
5.466857640E-1,2.562713146E0,3.233301640E0,3.480360508E0
5.489222140E-1,2.342573404E0,3.312862873E0,3.559323788E0
5.511593960E-1,1.890329838E0,3.486940861E0,3.530609846E0
5.533962740E-1,1.156331539E0,3.680759430E0,3.357130051E0
5.556350430E-1,-1.094716340E-1,3.915256023E0,3.297309637E0
5.578693570E-1,-2.099701881E0,4.231108665E0,3.531208038E0
5.601064790E-1,-4.369294167E0,4.215555191E0,3.987040758E0
5.623424410E-1,-6.881159782E0,4.527220249E0,4.712066174E0
5.645798070E-1,-9.043074608E0,4.914259434E0,5.597410202E0
5.668163790E-1,-1.023948669E1,5.053641319E0,6.263811588E0
5.690535000E-1,-1.049252701E1,5.007579803E0,6.661618233E0
5.712908660E-1,-1.013599682E1,4.881956577E0,6.812964439E0
5.735293300E-1,-9.625128746E0,4.778466702E0,6.856035233E0
5.757637050E-1,-9.156135559E0,4.737788677E0,6.836892605E0
5.780007050E-1,-8.729615211E0,4.731806755E0,6.778866768E0
5.802367280E-1,-8.411369324E0,4.794618607E0,6.681358814E0
5.824741550E-1,-8.209176064E0,4.844269276E0,6.616154671E0
5.847109710E-1,-8.020741463E0,4.913661480E0,6.531807423E0
5.869480320E-1,-7.766504288E0,4.966901779E0,6.582056999E0
5.891822850E-1,-7.170691490E0,4.899304390E0,6.835696220E0
5.914092130E-1,-6.236892223E0,4.721039295E0,7.183253765E0
5.936434660E-1,-5.079364300E0,4.400400639E0,7.466204643E0
5.958801600E-1,-3.728017569E0,3.943371773E0,7.770093441E0
5.981224700E-1,-2.565704107E0,3.533002615E0,7.886145115E0
6.003716160E-1,-1.608574986E0,3.183650494E0,7.967501163E0
6.026084320E-1,-6.448656917E-1,2.948555708E0,8.071588516E0
6.048441500E-1,3.092723191E-1,2.784647465E0,8.266604424E0
6.070762050E-1,1.010369420E0,2.691327333E0,8.516654015E0
6.093178440E-1,1.568495274E0,2.672184706E0,8.831908226E0
6.115525850E-1,2.030908108E0,2.678166628E0,9.112466812E0
6.137903780E-1,2.178664923E0,2.670390129E0,9.209376335E0
6.160256080E-1,1.962712765E0,2.612364054E0,9.083154678E0
6.182629730E-1,1.501496196E0,2.466402054E0,9.007781029E0
6.204997280E-1,9.786644578E-1,2.252842426E0,9.337391853E0
6.227365450E-1,2.943171859E-1,1.992623091E0,9.955936432E0
6.249736660E-1,-5.162515044E-1,1.689931035E0,1.071206856E1
6.272121310E-1,-1.267597795E0,1.335793257E0,1.116849995E1
6.294430880E-1,-1.730010748E0,8.404789567E-1,1.121755219E1
6.316689180E-1,-2.422732830E0,-3.038884699E-1,1.068335533E1
6.339196510E-1,-2.657827854E0,-8.440681696E-1,1.035314560E1
6.361572600E-1,-2.529811859E0,-1.045663476E0,1.016889763E1
6.383978000E-1,-2.362912416E0,-1.200598717E0,9.975079536E0
6.406312590E-1,-2.261217356E0,-1.277169108E0,9.704689980E0
6.428685020E-1,-2.182852507E0,-1.267597795E0,9.514460564E0
6.451066620E-1,-2.156531334E0,-1.157527924E0,9.409774780E0
6.473410370E-1,-2.154736757E0,-1.018744230E0,9.394820213E0
6.495751680E-1,-2.172084808E0,-8.799605370E-1,9.423533440E0
6.517998380E-1,-2.054836512E0,-7.716853023E-1,9.366703987E0
6.540403170E-1,-1.922633052E0,-6.675975323E-1,9.205786705E0
6.562883640E-1,-1.752144337E0,-6.017948985E-1,8.921041489E0
6.585262180E-1,-1.503290772E0,-4.941178858E-1,8.570492744E0
6.607570530E-1,-1.149751306E0,-4.211367965E-1,8.239685059E0
6.630009490E-1,-7.196413875E-1,-3.068794906E-1,7.938189030E0
6.652353240E-1,-2.267199457E-1,-1.310070455E-1,7.713861942E0
6.674744600E-1,3.427718580E-1,5.264209956E-2,7.518248558E0
6.697084080E-1,9.463613629E-1,2.213360965E-1,7.294519901E0
6.719458340E-1,1.554736495E0,4.378865361E-1,7.089933395E0
6.741826510E-1,2.201396942E0,6.394818425E-1,6.862017155E0
6.764197110E-1,2.830111027E0,8.991031051E-1,6.600601196E0
6.786539040E-1,3.444468260E0,1.173081279E0,6.357729912E0
6.808835780E-1,3.987040758E0,1.472184181E0,6.128616810E0
6.831298550E-1,4.562514782E0,2.237887383E0,6.218348026E0
6.853667330E-1,4.969892502E0,3.133401155E0,6.654439926E0
6.876048310E-1,5.178068161E0,3.594617844E0,6.564708710E0
6.898359710E-1,5.242076397E0,3.796213150E0,6.154938221E0
6.920771210E-1,5.194219589E0,3.894917011E0,5.734997749E0
6.943137540E-1,5.050052166E0,4.056432724E0,5.456831932E0
6.965524020E-1,4.823930264E0,4.298706055E0,5.425725460E0
6.987895230E-1,4.482355118E0,4.637888432E0,5.589035511E0
7.010242030E-1,4.059423447E0,4.968696117E0,5.799005508E0
7.032608980E-1,3.520440340E0,5.291129112E0,6.022136211E0
7.054970430E-1,2.915654421E0,5.615356445E0,6.202196121E0
7.077346530E-1,2.285743713E0,5.854040623E0,6.310471535E0
7.099714690E-1,1.650449395E0,6.016154289E0,6.347560406E0
7.122083470E-1,8.422735929E-1,5.836692810E0,6.449853420E0
7.144456510E-1,-3.631108403E-1,4.872385025E0,6.860222340E0
7.166840550E-1,-8.650053740E-1,4.617549419E0,6.832107067E0
7.189184300E-1,-1.316650629E0,4.324428558E0,6.494719028E0
7.211552460E-1,-1.503889084E0,4.118646145E0,6.149554253E0
7.233915130E-1,-1.575075507E0,3.944568157E0,5.787041664E0
7.256288790E-1,-1.607976794E0,3.855435371E0,5.491528034E0
7.278655120E-1,-1.703091502E0,3.748356581E0,5.261816978E0
7.301025120E-1,-1.737189293E0,3.634697676E0,5.099703312E0
7.323396330E-1,-1.886142492E0,3.541975737E0,4.974080086E0
7.345781590E-1,-2.035693884E0,3.453441381E0,4.906482697E0
7.368127780E-1,-2.112264156E0,3.393022537E0,4.829314232E0
7.390498990E-1,-2.160718918E0,3.336791277E0,4.762315273E0
7.412861670E-1,-2.179861546E0,3.289532900E0,4.671388149E0
7.435235320E-1,-2.135594130E0,3.303889751E0,4.566701889E0
7.457602870E-1,-1.981257200E0,3.320639610E0,4.472783566E0
7.479969820E-1,-1.821536183E0,3.352344513E0,4.354937077E0
7.502309910E-1,-1.658226132E0,3.350549936E0,4.242474556E0
7.524609100E-1,-1.485344648E0,3.281756163E0,4.091726780E0
7.547072480E-1,-1.402792215E0,3.062813044E0,3.596412420E0
7.569441860E-1,-1.358525038E0,2.859423161E0,3.005983353E0
7.591833220E-1,-1.161117196E0,2.790629387E0,2.764906645E0
7.614177580E-1,-8.392825127E-1,2.828914642E0,2.767897606E0
7.636545750E-1,-4.456632137E-1,2.965903759E0,2.914458036E0
7.658912690E-1,-1.860419661E-1,3.090330362E0,3.021536827E0
7.681282680E-1,1.076770201E-2,3.092125177E0,2.994617462E0
7.703671600E-1,1.489532143E-1,3.009572744E0,2.895913601E0
7.725984830E-1,2.536391914E-1,2.869592667E0,2.754138947E0
7.748262050E-1,3.373879790E-1,2.691925526E0,2.712264538E0
